0	-0.060
1	-0.065
2	-0.060
3	-0.075
4	-0.065
5	-0.070
6	-0.070
7	-0.090
8	-0.080
9	-0.095
10	-0.080
11	-0.095
12	-0.080
13	-0.095
14	-0.085
15	-0.090
16	-0.090
17	-0.100
18	-0.085
19	-0.105
20	-0.090
21	-0.045
22	0.005
23	0.015
24	0.045
25	0.155
26	0.140
27	0.045
28	0.005
29	-0.040
30	-0.085
31	-0.200
32	-0.195
33	-0.200
34	-0.200
35	-0.240
36	-0.130
37	0.340
38	1.155
39	1.470
40	-0.155
41	-0.825
42	-0.590
43	-0.350
44	-0.155
45	-0.170
46	-0.140
47	-0.155
48	-0.115
49	-0.125
50	-0.090
51	-0.095
52	-0.065
53	-0.055
54	-0.015
55	-0.005
56	0.035
57	0.045
58	0.090
59	0.110
60	0.150
61	0.180
62	0.205
63	0.225
64	0.230
65	0.220
66	0.235
67	0.230
68	0.200
69	0.170
70	0.120
71	0.075
72	0.040
73	0.020
74	0.005
75	-0.005
76	-0.005
77	-0.010
78	-0.015
79	-0.010
80	0.000
81	-0.005
82	-0.020
83	-0.020
84	-0.015
85	-0.025
86	-0.035
87	-0.045
88	-0.045
89	-0.060
90	-0.065
91	-0.070
92	-0.055
93	-0.060
94	-0.080
95	-0.075
96	-0.090
97	-0.065
98	-0.075
99	-0.080
100	-0.080
101	-0.085
102	-0.090
103	-0.075
104	-0.085
105	-0.095
106	-0.105
107	-0.090
108	-0.095
109	-0.070
110	-0.045
111	0.005
112	0.030
113	0.070
114	0.195
115	0.145
116	0.050
117	-0.015
118	-0.025
119	-0.115
120	-0.180
121	-0.190
122	-0.185
123	-0.185
124	-0.215
125	0.010
126	0.575
127	1.185
128	0.960
129	-0.160
130	-0.740
131	-0.640
132	-0.350
133	-0.175
134	-0.145
135	-0.150
136	-0.145
137	-0.105
138	-0.120
139	-0.090
140	-0.085
141	-0.070
142	-0.040
143	-0.020
144	0.005
145	0.020
146	0.045
147	0.080
148	0.115
149	0.140
150	0.165
151	0.210
152	0.190
153	0.220
154	0.210
155	0.215
156	0.215
157	0.160
158	0.135
159	0.100
160	0.050
161	0.035
162	-0.005
163	0.005
164	-0.005
165	-0.015
166	-0.020
167	-0.010
168	0.000
169	-0.020
170	-0.005
171	-0.040
172	-0.035
173	-0.050
174	-0.040
175	-0.055
176	-0.075
177	-0.050
178	-0.075
179	-0.090
180	-0.080
181	-0.090
182	-0.080
183	-0.075
184	-0.085
185	-0.085
186	-0.095
187	-0.095
188	-0.105
189	-0.080
190	-0.115
191	-0.100
192	-0.095
193	-0.100
194	-0.075
195	-0.005
196	0.010
197	0.055
198	0.185
199	0.145
200	0.075
201	-0.005
202	-0.025
203	-0.110
204	-0.175
205	-0.180
206	-0.220
207	-0.175
208	-0.240
209	-0.030
210	0.530
211	1.210
212	1.220
213	-0.105
214	-0.795
215	-0.690
216	-0.375
217	-0.165
218	-0.155
219	-0.135
220	-0.150
221	-0.120
222	-0.120
223	-0.090
224	-0.095
225	-0.050
226	-0.050
227	-0.010
228	-0.005
229	0.030
230	0.080
231	0.075
232	0.145
233	0.155
234	0.200
235	0.200
236	0.240
237	0.235
238	0.245
239	0.245
240	0.215
241	0.180
242	0.150
243	0.090
244	0.035
245	0.025
246	0.000
247	-0.015
248	-0.030
249	0.000
250	-0.020
251	-0.005
252	-0.025
253	-0.030
254	-0.015
255	-0.010
256	-0.035
257	-0.040
258	-0.050
259	-0.045
260	-0.040
261	-0.075
262	-0.065
263	-0.095
264	-0.085
265	-0.085
266	-0.090
267	-0.100
268	-0.100
269	-0.080
270	-0.105
271	-0.105
272	-0.100
273	-0.105
274	-0.095
275	-0.100
276	-0.090
277	-0.035
278	0.010
279	0.035
280	0.070
281	0.190
282	0.125
283	0.045
284	-0.035
285	-0.060
286	-0.155
287	-0.210
288	-0.225
289	-0.200
290	-0.215
291	-0.265
292	0.070
293	0.865
294	1.495
295	0.625
296	-0.440
297	-0.815
298	-0.600
299	-0.310
300	-0.175
301	-0.180
302	-0.165
303	-0.135
304	-0.135
305	-0.115
306	-0.105
307	-0.085
308	-0.060
309	-0.030
310	-0.020
311	0.015
312	0.050
313	0.070
314	0.105
315	0.165
316	0.200
317	0.205
318	0.235
319	0.235
320	0.265
321	0.260
322	0.235
323	0.215
324	0.170
325	0.125
326	0.090
327	0.025
328	-0.015
329	-0.030
330	-0.035
331	-0.040
332	-0.040
333	-0.035
334	-0.040
335	-0.020
336	-0.040
337	-0.040
338	-0.030
339	-0.045
340	-0.065
341	-0.060
342	-0.060
343	-0.090
344	-0.080
345	-0.095
346	-0.085
347	-0.105
348	-0.090
349	-0.100
350	-0.105
351	-0.115
352	-0.100
353	-0.115
354	-0.110
355	-0.135
356	-0.095
357	-0.125
358	-0.105
359	-0.085
360	-0.015
361	0.020
362	0.030
363	0.135
364	0.160
365	0.105
366	0.030
367	-0.050
368	-0.050
369	-0.170
370	-0.205
371	-0.215
372	-0.175
373	-0.210
374	-0.215
375	0.175
376	1.090
377	1.700
378	0.335
379	-0.615
380	-0.705
381	-0.460
382	-0.175
383	-0.165
384	-0.145
385	-0.155
386	-0.115
387	-0.120
388	-0.105
389	-0.105
390	-0.085
391	-0.060
392	-0.015
393	-0.005
394	0.020
395	0.050
396	0.080
397	0.105
398	0.180
399	0.205
400	0.240
401	0.235
402	0.270
403	0.270
404	0.280
405	0.260
406	0.230
407	0.175
408	0.135
409	0.090
410	0.045
411	0.000
412	-0.005
413	-0.025
414	-0.025
415	-0.025
416	-0.020
417	0.000
418	-0.005
419	-0.005
420	-0.005
421	-0.005
422	-0.010
423	-0.025
424	-0.020
425	-0.040
426	-0.040
427	-0.040
428	-0.050
429	-0.060
430	-0.050
431	-0.065
432	-0.060
433	-0.070
434	-0.060
435	-0.090
436	-0.080
437	-0.095
438	-0.085
439	-0.100
440	-0.090
441	-0.095
442	-0.085
443	-0.100
444	-0.075
445	-0.095
446	-0.080
447	-0.075
448	0.000
449	0.030
450	0.035
451	0.135
452	0.145
453	0.070
454	0.015
455	-0.045
456	-0.055
457	-0.185
458	-0.190
459	-0.220
460	-0.180
461	-0.210
462	-0.185
463	0.220
464	1.150
465	1.720
466	0.155
467	-0.700
468	-0.660
469	-0.405
470	-0.150
471	-0.160
472	-0.135
473	-0.145
474	-0.120
475	-0.125
476	-0.090
477	-0.090
478	-0.055
479	-0.040
480	-0.015
481	0.000
482	0.030
483	0.050
484	0.095
485	0.110
486	0.165
487	0.190
488	0.230
489	0.245
490	0.255
491	0.255
492	0.265
493	0.255
494	0.230
495	0.185
496	0.145
497	0.100
498	0.060
499	0.025
500	0.025
501	0.010
502	0.010
503	0.010
504	0.015
505	0.010
506	0.025
507	0.020
508	0.020
509	0.020
510	0.015
511	0.000
512	0.000
513	-0.010
514	-0.015
515	-0.020
516	-0.030
517	-0.035
518	-0.035
519	-0.045
520	-0.040
521	-0.045
522	-0.045
523	-0.055
524	-0.045
525	-0.055
526	-0.045
527	-0.060
528	-0.050
529	-0.060
530	-0.055
531	-0.080
532	-0.065
533	-0.090
534	-0.075
535	-0.090
536	-0.070
537	-0.075
538	-0.065
539	-0.080
540	-0.065
541	-0.030
542	0.025
543	0.040
544	0.065
545	0.180
546	0.145
547	0.055
548	0.015
549	-0.035
550	-0.060
551	-0.175
552	-0.170
553	-0.195
554	-0.175
555	-0.220
556	-0.115
557	0.355
558	1.240
559	1.595
560	-0.115
561	-0.815
562	-0.565
563	-0.300
564	-0.130
565	-0.160
566	-0.130
567	-0.135
568	-0.110
569	-0.120
570	-0.090
571	-0.085
572	-0.055
573	-0.040
574	-0.005
575	0.000
576	0.040
577	0.050
578	0.095
579	0.125
580	0.170
581	0.190
582	0.220
583	0.230
584	0.245
585	0.250
586	0.260
587	0.240
588	0.220
589	0.175
590	0.135
591	0.085
592	0.055
593	0.020
594	0.015
595	0.010
596	0.010
597	0.000
598	0.000
599	0.000
600	0.010
601	0.005
602	0.020
603	0.010
604	0.000
605	-0.010
606	-0.015
607	-0.020
608	-0.020
609	-0.025
610	-0.035
611	-0.030
612	-0.045
613	-0.050
614	-0.050
615	-0.055
616	-0.065
617	-0.065
618	-0.060
619	-0.065
620	-0.070
621	-0.060
622	-0.060
623	-0.055
624	-0.060
625	-0.065
626	-0.080
627	-0.065
628	-0.080
629	-0.065
630	-0.075
631	-0.070
632	-0.085
633	-0.070
634	-0.085
635	-0.075
636	-0.085
637	-0.060
638	-0.045
639	0.020
640	0.040
641	0.055
642	0.180
643	0.155
644	0.060
645	0.020
646	-0.025
647	-0.055
648	-0.180
649	-0.160
650	-0.170
651	-0.165
652	-0.195
653	-0.100
654	0.350
655	1.115
656	1.495
657	-0.040
658	-0.730
659	-0.620
660	-0.365
661	-0.130
662	-0.150
663	-0.135
664	-0.150
665	-0.120
666	-0.130
667	-0.105
668	-0.090
669	-0.055
670	-0.060
671	-0.035
672	-0.015
673	0.020
674	0.045
675	0.065
676	0.095
677	0.145
678	0.180
679	0.215
680	0.200
681	0.225
682	0.235
683	0.245
684	0.235
685	0.225
686	0.175
687	0.130
688	0.090
689	0.050
690	0.035
691	0.015
692	0.005
693	0.000
694	-0.005
695	0.000
696	0.000
697	0.000
698	0.000
699	-0.005
700	-0.005
701	-0.020
702	-0.020
703	-0.040
704	-0.050
705	-0.060
706	-0.060
707	-0.060
708	-0.070
709	-0.065
710	-0.075
711	-0.070
712	-0.065
713	-0.075
714	-0.075
715	-0.075
716	-0.090
717	-0.075
718	-0.085
719	-0.080
720	-0.090
721	-0.075
722	-0.090
723	-0.080
724	-0.090
725	-0.080
726	-0.100
727	-0.085
728	-0.100
729	-0.075
730	-0.085
731	-0.090
732	-0.075
733	-0.015
734	0.025
735	0.055
736	0.155
737	0.160
738	0.095
739	0.015
740	-0.035
741	-0.050
742	-0.175
743	-0.170
744	-0.190
745	-0.175
746	-0.200
747	-0.105
748	0.335
749	1.095
750	1.470
751	0.065
752	-0.660
753	-0.690
754	-0.440
755	-0.185
756	-0.160
757	-0.135
758	-0.135
759	-0.115
760	-0.115
761	-0.110
762	-0.095
763	-0.055
764	-0.050
765	-0.015
766	-0.005
767	0.045
768	0.050
769	0.095
770	0.120
771	0.165
772	0.185
773	0.210
774	0.225
775	0.245
776	0.240
777	0.240
778	0.235
779	0.210
780	0.165
781	0.125
782	0.070
783	0.045
784	0.010
785	0.020
786	0.005
787	0.000
788	0.000
789	0.000
790	0.000
791	0.000
792	-0.005
793	-0.010
794	-0.005
795	-0.025
796	-0.005
797	-0.040
798	-0.040
799	-0.045
800	-0.045
801	-0.040
802	-0.055
803	-0.065
804	-0.050
805	-0.065
806	-0.065
807	-0.065
808	-0.065
809	-0.070
810	-0.065
811	-0.070
812	-0.065
813	-0.070
814	-0.070
815	-0.085
816	-0.060
817	-0.090
818	-0.065
819	-0.085
820	-0.080
821	-0.085
822	-0.050
823	-0.090
824	-0.075
825	-0.055
826	0.005
827	0.055
828	0.060
829	0.160
830	0.155
831	0.080
832	0.015
833	-0.020
834	-0.045
835	-0.170
836	-0.170
837	-0.175
838	-0.160
839	-0.200
840	-0.105
841	0.360
842	1.160
843	1.550
844	0.070
845	-0.690
846	-0.660
847	-0.410
848	-0.155
849	-0.155
850	-0.135
851	-0.135
852	-0.105
853	-0.110
854	-0.085
855	-0.090
856	-0.065
857	-0.045
858	-0.005
859	0.000
860	0.040
861	0.065
862	0.100
863	0.120
864	0.175
865	0.190
866	0.230
867	0.255
868	0.270
869	0.265
870	0.275
871	0.245
872	0.215
873	0.175
874	0.140
875	0.095
876	0.040
877	0.025
878	0.015
879	0.000
880	0.000
881	0.000
882	0.000
883	0.000
884	0.000
885	0.000
886	0.000
887	-0.005
888	-0.010
889	-0.010
890	-0.015
891	-0.030
892	-0.035
893	-0.045
894	-0.045
895	-0.050
896	-0.045
897	-0.065
898	-0.070
899	-0.075
900	-0.070
901	-0.090
902	-0.085
903	-0.090
904	-0.070
905	-0.085
906	-0.085
907	-0.095
908	-0.085
909	-0.090
910	-0.085
911	-0.090
912	-0.090
913	-0.100
914	-0.090
915	-0.105
916	-0.090
917	-0.100
918	-0.085
919	-0.055
920	0.000
921	0.035
922	0.050
923	0.170
924	0.135
925	0.060
926	0.010
927	-0.035
928	-0.075
929	-0.190
930	-0.185
931	-0.205
932	-0.180
933	-0.225
934	-0.110
935	0.380
936	1.215
937	1.545
938	-0.025
939	-0.765
940	-0.620
941	-0.370
942	-0.155
943	-0.170
944	-0.145
945	-0.160
946	-0.130
947	-0.145
948	-0.125
949	-0.120
950	-0.080
951	-0.065
952	-0.035
953	-0.020
954	0.010
955	0.035
956	0.080
957	0.105
958	0.155
959	0.180
960	0.220
961	0.225
962	0.240
963	0.235
964	0.245
965	0.225
966	0.200
967	0.155
968	0.115
969	0.075
970	0.050
971	0.020
972	0.000
973	-0.010
974	-0.015
975	-0.010
976	-0.010
977	-0.005
978	0.000
979	0.000
980	0.000
981	0.000
982	0.000
983	-0.005
984	-0.010
985	-0.020
986	-0.025
987	-0.035
988	-0.045
989	-0.055
990	-0.055
991	-0.060
992	-0.060
993	-0.060
994	-0.055
995	-0.055
996	-0.055
997	-0.065
998	-0.060
999	-0.055
